Data from lamp3bck_noballon_Subt4__10__351.txt Node

Date: Fri Apr 04 11:09:06 CEST 2025
User: fys-lab-0081
Spectrometer: S04999
Trigger mode: 0
Resolution mode: 1024 pixels
Integration Time (sec): 1.000000E-1
Scans to average: 1
Nonlinearity correction enabled: false
Boxcar width: 0
Baseline correction enabled: true
XAxis mode: Wavelengths
Number of Pixels in Spectrum: 1024
>>>>>Begin Spectral Data<<<<<
336.42	10
336.877	11
337.334	13
337.792	13
338.249	12
338.706	14
339.164	13
339.621	9
340.079	14
340.536	11
340.994	15
341.452	12
341.909	16
342.367	20
342.825	25
343.283	16
343.741	22
344.198	12
344.656	13
345.114	20
345.572	18
346.03	19
346.488	21
346.947	24
347.405	25
347.863	27
348.321	23
348.779	30
349.238	30
349.696	30
350.154	31
350.613	35
351.071	36
351.53	33
351.988	35
352.447	38
352.905	35
353.364	39
353.823	49
354.282	42
354.74	46
355.199	47
355.658	49
356.117	49
356.576	48
357.035	51
357.494	51
357.953	54
358.412	57
358.871	56
359.33	59
359.789	58
360.249	64
360.708	66
361.167	61
361.626	70
362.086	68
362.545	70
363.005	69
363.464	76
363.924	76
364.383	78
364.843	83
365.303	82
365.762	89
366.222	97
366.682	89
367.142	93
367.601	93
368.061	94
368.521	101
368.981	98
369.441	101
369.901	96
370.361	100
370.821	106
371.282	103
371.742	104
372.202	106
372.662	112
373.123	118
373.583	114
374.043	122
374.504	124
374.964	121
375.425	129
375.885	129
376.346	138
376.806	135
377.267	144
377.728	135
378.188	138
378.649	144
379.11	150
379.571	152
380.032	153
380.493	153
380.954	163
381.414	165
381.876	173
382.337	176
382.798	178
383.259	189
383.72	189
384.181	199
384.642	201
385.104	210
385.565	212
386.026	224
386.488	233
386.949	228
387.411	243
387.872	246
388.334	245
388.795	254
389.257	258
389.719	267
390.181	269
390.642	277
391.104	281
391.566	283
392.028	297
392.49	300
392.952	302
393.414	314
393.876	317
394.338	329
394.8	328
395.262	333
395.724	347
396.186	349
396.648	359
397.111	355
397.573	362
398.035	367
398.498	377
398.96	375
399.423	376
399.885	386
400.348	388
400.81	405
401.273	404
401.736	406
402.198	422
402.661	438
403.124	438
403.587	450
404.049	460.5
404.512	471
404.975	480
405.438	475
405.901	489
406.364	483
406.827	488
407.29	488
407.754	482
408.217	477
408.68	482
409.143	493
409.607	493
410.07	495
410.533	502
410.997	517
411.46	518
411.924	516
412.387	514
412.851	542
413.314	558
413.778	553
414.242	565
414.705	580
415.169	572
415.633	583
416.097	581
416.561	582
417.024	604
417.488	588
417.952	598
418.416	586
418.88	597
419.344	594
419.809	590
420.273	605
420.737	591
421.201	609
421.665	618
422.13	608
422.594	629
423.059	646
423.523	647
423.987	658
424.452	681
424.916	689
425.381	715
425.846	716
426.31	712
426.775	722
427.24	744
427.704	731
428.169	740
428.634	747
429.099	720
429.564	722
430.029	738
430.494	739
430.959	735
431.424	720
431.889	742
432.354	748
432.819	746
433.284	769
433.75	769
434.215	801
434.68	806
435.146	827
435.611	854
436.077	880
436.542	894
437.008	924
437.473	925
437.939	924
438.404	947
438.87	959
439.336	935
439.801	939
440.267	957
440.733	970
441.199	976
441.665	970
442.131	989
442.596	966
443.062	1005
443.529	1020
443.995	1042
444.461	1056
444.927	1099
445.393	1113
445.859	1153
446.325	1158
446.792	1228
447.258	1222
447.724	1245
448.191	1302
448.657	1312
449.124	1355
449.59	1344
450.057	1412
450.523	1423
450.99	1458
451.457	1446
451.923	1457
452.39	1442
452.857	1473
453.324	1472
453.791	1495
454.257	1495
454.724	1521
455.191	1509
455.658	1490
456.125	1556
456.592	1515
457.059	1535
457.527	1549
457.994	1594
458.461	1597
458.928	1636
459.396	1627
459.863	1687
460.33	1678
460.798	1676
461.265	1697
461.732	1678
462.2	1722
462.668	1714
463.135	1740
463.603	1696
464.07	1729
464.538	1671
465.006	1734
465.474	1685
465.941	1698
466.409	1705
466.877	1667
467.345	1721
467.813	1685
468.281	1697
468.749	1715
469.217	1721
469.685	1727
470.153	1745
470.621	1735
471.09	1744
471.558	1820
472.026	1796
472.494	1840
472.963	1862
473.431	1920
473.9	1944
474.368	1988
474.837	2029
475.305	2069
475.774	2105
476.242	2153
476.711	2165
477.18	2209
477.648	2176
478.117	2203
478.586	2178
479.055	2211
479.524	2233
479.993	2203
480.462	2192
480.93	2196
481.399	2198
481.869	2226
482.338	2171
482.807	2200
483.276	2185
483.745	2182
484.214	2236
484.684	2269
485.153	2251
485.622	2247
486.092	2324
486.561	2301
487.031	2368
487.5	2389
487.97	2380
488.439	2414
488.909	2459
489.378	2561
489.848	2559
490.318	2633
490.787	2727
491.257	2775
491.727	2821
492.197	2854
492.667	2834
493.137	2881
493.607	2886
494.077	2940
494.547	2912
495.017	2873
495.487	2919
495.957	2977
496.427	2900
496.897	2916
497.368	2943
497.838	2908
498.308	2958
498.779	2952
499.249	2954
499.719	2975
500.19	2992
500.66	3015
501.131	3048
501.602	3112
502.072	3103
502.543	3106
503.014	3214
503.484	3182
503.955	3268
504.426	3351
504.897	3324
505.368	3404
505.838	3483
506.309	3574
506.78	3682
507.251	3722
507.722	3786
508.194	3898
508.665	3907
509.136	3886
509.607	3989
510.078	4079
510.549	4149
511.021	4229
511.492	4222
511.964	4276
512.435	4298
512.906	4261
513.378	4301
513.849	4333
514.321	4358
514.793	4403
515.264	4443
515.736	4506
516.208	4596
516.679	4606
517.151	4652
517.623	4675
518.095	4707
518.567	4754
519.038	4854
519.51	4833
519.982	4914
520.454	4962
520.927	4960
521.399	5017
521.871	5106
522.343	5113
522.815	5154
523.287	5125
523.76	5177
524.232	5267
524.704	5318
525.177	5249
525.649	5226
526.122	5268
526.594	5159
527.067	5289
527.539	5312
528.012	5259
528.484	5239
528.957	5261
529.43	5240
529.903	5236
530.375	5398
530.848	5270
531.321	5375
531.794	5358
532.267	5439
532.74	5355
533.213	5294
533.686	5345
534.159	5313
534.632	5461
535.105	5449
535.578	5498
536.051	5560
536.525	5556
536.998	5513
537.471	5594
537.945	5548
538.418	5635
538.891	5662
539.365	5764
539.838	5789
540.312	5770
540.786	5826
541.259	5836
541.733	5869
542.206	5875
542.68	5792
543.154	5750
543.628	5708
544.101	5867
544.575	5828
545.049	5705
545.523	5807
545.997	5776
546.471	5809
546.945	5756
547.419	5849
547.893	5575
548.367	5650
548.842	5619
549.316	5616
549.79	5645
550.264	5631
550.739	5679
551.213	5696
551.687	5724
552.162	5703
552.636	5614
553.111	5606
553.585	5726
554.06	5622
554.534	5784
555.009	5734
555.484	5804
555.958	5892
556.433	5917
556.908	5953
557.383	5906
557.858	6037
558.333	6025
558.807	5909
559.282	5937
559.757	6098
560.232	6173
560.708	6076
561.183	6052
561.658	6108
562.133	6123
562.608	6073
563.083	6258
563.559	6087
564.034	6088
564.509	6072
564.985	6063
565.46	5980
565.936	6086
566.411	6112
566.887	6046
567.362	6091
567.838	6067
568.313	6123
568.789	6066
569.265	6081
569.74	6105
570.216	6026
570.692	6177
571.168	6171
571.644	6129
572.12	6075
572.596	6142
573.071	6125
573.547	6274
574.024	6271
574.5	6279
574.976	6304
575.452	6385
575.928	6385
576.404	6394
576.881	6606
577.357	6496
577.833	6538
578.31	6734
578.786	6787
579.262	6894
579.739	6779
580.215	6980
580.692	6986
581.169	6988
581.645	6998
582.122	7151
582.598	7112
583.075	7117
583.552	7215
584.029	7223
584.506	7174
584.982	7095
585.459	7215
585.936	7123
586.413	7236
586.89	7328
587.367	7210
587.844	7309
588.321	7227
588.799	7234
589.276	7178
589.753	7287
590.23	7283
590.707	7247
591.185	7271
591.662	7260
592.139	7289
592.617	7366
593.094	7369
593.572	7495
594.049	7542
594.527	7596
595.004	7601
595.482	7760
595.96	7689
596.437	7674
596.915	7832
597.393	7697
597.871	7869
598.349	7793
598.826	7988
599.304	7992
599.782	8131
600.26	8017
600.738	8115
601.216	8043
601.694	8119
602.173	8206
602.651	8249
603.129	8099
603.607	8127
604.085	8224
604.564	8237
605.042	8234
605.52	8189
605.999	8366
606.477	8185
606.956	8200
607.434	8172.5
607.913	8145
608.391	8163
608.87	8235
609.348	8168
609.827	8220
610.306	8254
610.785	8233
611.263	8258
611.742	8150
612.221	7941
612.7	7999
613.179	8040
613.658	7965
614.137	8166
614.616	8252
615.095	8075
615.574	8171
616.053	8272
616.532	8192
617.011	8138
617.491	8111
617.97	8066
618.449	8176
618.928	8274
619.408	8251
619.887	8353
620.367	8338
620.846	8375
621.326	8341
621.805	8545
622.285	8566
622.764	8597
623.244	8591
623.724	8641
624.203	8708
624.683	8512
625.163	8668
625.643	8662
626.123	8595
626.602	8769
627.082	8545
627.562	8542
628.042	8679
628.522	8597
629.002	8642
629.482	8685
629.963	8613
630.443	8468
630.923	8487
631.403	8540
631.883	8487
632.364	8560
632.844	8527
633.324	8507
633.805	8518
634.285	8424
634.766	8390
635.246	8369
635.727	8335
636.207	8364
636.688	8414
637.168	8458
637.649	8382
638.13	8364
638.611	8379
639.091	8344
639.572	8384
640.053	8356
640.534	8462
641.015	8405
641.496	8264
641.977	8369
642.458	8206
642.939	8155
643.42	8150
643.901	8179
644.382	8220
644.863	8202
645.345	8209
645.826	8133
646.307	8081
646.788	8282
647.27	8208
647.751	8286
648.233	8380
648.714	8236
649.196	8441
649.677	8400
650.159	8415
650.64	8307
651.122	8399
651.603	8259
652.085	8299
652.567	8272
653.049	8181
653.53	8185
654.012	8226
654.494	7981
654.976	7982
655.458	7938
655.94	8000
656.422	8159
656.904	8031
657.386	7929
657.868	7974
658.35	8052
658.833	8173
659.315	8130
659.797	8029
660.279	8053
660.762	8107
661.244	8017
661.726	7943
662.209	7918
662.691	7899
663.174	7760
663.656	7821
664.139	7843
664.621	7813
665.104	7744
665.587	7754
666.069	7711
666.552	7652
667.035	7555
667.517	7611
668	7684
668.483	7637
668.966	7523
669.449	7456
669.932	7532
670.415	7706
670.898	7646
671.381	7645
671.864	7653
672.347	7582
672.83	7579
673.313	7632
673.797	7550
674.28	7593
674.763	7556
675.247	7540
675.73	7562
676.213	7665
676.697	7713
677.18	7703
677.664	7737
678.147	7731
678.631	7728
679.114	7789
679.598	7841
680.082	7947
680.565	7938
681.049	7935
681.533	7937
682.017	8006
682.5	7932
682.984	7923
683.468	7855
683.952	7711
684.436	7863
684.92	7761
685.404	7794
685.888	7852
686.372	7773
686.856	7725
687.341	7825
687.825	7739
688.309	7775
688.793	7793
689.278	7759
689.762	7881
690.246	7822
690.731	7815
691.215	7766
691.7	7531
692.184	7590
692.669	7584
693.153	7618
693.638	7500
694.122	7511
694.607	7510
695.092	7352
695.577	7439
696.061	7331
696.546	7369
697.031	7360
697.516	7426
698.001	7378
698.486	7289
698.971	7387
699.456	7342
699.941	7352
700.426	7328
700.911	7405
701.396	7356
701.881	7359
702.366	7242
702.852	7199
703.337	7222
703.822	7198
704.308	7146
704.793	7139
705.278	7083
705.764	7082
706.249	7060
706.735	7085
707.22	7128
707.706	7021
708.191	7174
708.677	7205
709.163	7140
709.648	7162
710.134	7214
710.62	7122
711.106	7077
711.592	7147
712.077	7092
712.563	6917
713.049	6939
713.535	7118
714.021	7071
714.507	7017
714.993	6922
715.479	7048
715.966	6964
716.452	6948
716.938	6931
717.424	6738
717.91	6877
718.397	6771
718.883	6728
719.369	6766
719.856	6785
720.342	6875
720.829	6745
721.315	6704
721.802	6663
722.288	6689
722.775	6458
723.262	6286
723.748	6559
724.235	6503
724.722	6582
725.208	6471
725.695	6488
726.182	6466
726.669	6372
727.156	6389
727.643	6330
728.13	6347
728.617	6275
729.104	6259
729.591	6205
730.078	6263
730.565	6270
731.052	6218
731.539	6275
732.027	6189
732.514	6076
733.001	6111
733.488	6119
733.976	6156
734.463	6156
734.951	6126
735.438	6151
735.926	6046
736.413	6007
736.901	5890
737.388	5958
737.876	5912
738.364	5813
738.851	5810
739.339	5800
739.827	5835
740.314	5675
740.802	5755
741.29	5816
741.778	5765
742.266	5747
742.754	5765
743.242	5850
743.73	5755
744.218	5756
744.706	5638
745.194	5673
745.682	5642
746.17	5721
746.659	5803
747.147	5660
747.635	5684
748.123	5669
748.612	5612
749.1	5533
749.589	5524
750.077	5458
750.566	5372
751.054	5398
751.543	5422
752.031	5325
752.52	5341
753.008	5221
753.497	5198
753.986	5153
754.474	5131
754.963	5168
755.452	5094
755.941	5049
756.43	5019
756.919	4937
757.408	4871
757.896	4884
758.385	4942
758.875	4899
759.364	4881
759.853	4864
760.342	4791
760.831	4921
761.32	4910
761.809	4862
762.299	4876
762.788	4874
763.277	4838
763.767	4733
764.256	4671
764.745	4595
765.235	4676
765.724	4557
766.214	4612
766.703	4563
767.193	4489
767.683	4498
768.172	4411
768.662	4468
769.152	4474
769.641	4476
770.131	4335
770.621	4357
771.111	4273
771.601	4280
772.09	4240
772.58	4212
773.07	4250
773.56	4309
774.05	4206
774.54	4167
775.031	4111
775.521	4041
776.011	4039
776.501	4085
776.991	4069
777.482	4124
777.972	3962
778.462	3959
778.953	4003
779.443	4002
779.933	4018
780.424	3959
780.914	3954
781.405	3909
781.895	3831
782.386	3829
782.877	3797
783.367	3729
783.858	3740
784.349	3755
784.839	3718
785.33	3750
785.821	3714
786.312	3684
786.803	3662
787.293	3647
787.784	3582
788.275	3531
788.766	3484
789.257	3548
789.748	3453
790.24	3401
790.731	3434
791.222	3378
791.713	3368
792.204	3409
792.696	3358
793.187	3435
793.678	3421
794.169	3321
794.661	3352
795.152	3296
795.644	3254
796.135	3241
796.627	3231
797.118	3177
797.61	3172
798.101	3135
798.593	3166
799.085	3107
799.576	3100
800.068	3058
800.56	3069
801.052	2997
801.544	2990
802.035	3002
802.527	2959
803.019	2948
803.511	2949
804.003	2928
804.495	2925
804.987	2864
805.479	2787
805.971	2812
806.464	2828
806.956	2765
807.448	2763
807.94	2754
808.433	2746
808.925	2756
809.417	2764
809.91	2750
810.402	2683
810.894	2711
811.387	2716
811.879	2645
812.372	2631
812.865	2604
813.357	2603
813.85	2603
814.342	2561
814.835	2541
815.328	2528
815.821	2480
816.313	2471
816.806	2470
817.299	2465
817.792	2507
818.285	2501
818.778	2538
819.271	2509
819.764	2447
820.257	2439
820.75	2422
821.243	2409
821.736	2383
822.229	2417
822.722	2416
823.216	2471
