Data from lamp3bck_noballon_Subt4__18__359.txt Node

Date: Fri Apr 04 11:09:07 CEST 2025
User: fys-lab-0081
Spectrometer: S04999
Trigger mode: 0
Resolution mode: 1024 pixels
Integration Time (sec): 1.000000E-1
Scans to average: 1
Nonlinearity correction enabled: false
Boxcar width: 0
Baseline correction enabled: true
XAxis mode: Wavelengths
Number of Pixels in Spectrum: 1024
>>>>>Begin Spectral Data<<<<<
336.42	8
336.877	11
337.334	10
337.792	9
338.249	9
338.706	15
339.164	17
339.621	10
340.079	17
340.536	13
340.994	12
341.452	22
341.909	19
342.367	17
342.825	18
343.283	18
343.741	24
344.198	14
344.656	16
345.114	24
345.572	15
346.03	25
346.488	21
346.947	23
347.405	25
347.863	30
348.321	23
348.779	28
349.238	27
349.696	31
350.154	32
350.613	32
351.071	36
351.53	34
351.988	34
352.447	39
352.905	38
353.364	46
353.823	46
354.282	42
354.74	50
355.199	44
355.658	44
356.117	53
356.576	50
357.035	49
357.494	52
357.953	54
358.412	56
358.871	58
359.33	60
359.789	58
360.249	60
360.708	67
361.167	63
361.626	72
362.086	67
362.545	70
363.005	72
363.464	78
363.924	79
364.383	83
364.843	83
365.303	82
365.762	91
366.222	95
366.682	95
367.142	92
367.601	97
368.061	95
368.521	99
368.981	102
369.441	99
369.901	95
370.361	101
370.821	105
371.282	100
371.742	105
372.202	111
372.662	112
373.123	113
373.583	113
374.043	121
374.504	119
374.964	128
375.425	130
375.885	131
376.346	137
376.806	132
377.267	142
377.728	140
378.188	144
378.649	151
379.11	149
379.571	150
380.032	153
380.493	156
380.954	165
381.414	164
381.876	173
382.337	177
382.798	181
383.259	189
383.72	188
384.181	201
384.642	205
385.104	215
385.565	218
386.026	223
386.488	236
386.949	231
387.411	243
387.872	245
388.334	248
388.795	255
389.257	258
389.719	265
390.181	272
390.642	281
391.104	277
391.566	288
392.028	298
392.49	303
392.952	303
393.414	312
393.876	321
394.338	333
394.8	329
395.262	339
395.724	349
396.186	349
396.648	356
397.111	354
397.573	362
398.035	360
398.498	372
398.96	379
399.423	382
399.885	390
400.348	388
400.81	408
401.273	408
401.736	405
402.198	430
402.661	436
403.124	442
403.587	453
404.049	465.5
404.512	478
404.975	486
405.438	480
405.901	483
406.364	485
406.827	497
407.29	487
407.754	486
408.217	479
408.68	484
409.143	497
409.607	499
410.07	498
410.533	509
410.997	519
411.46	518
411.924	520
412.387	519
412.851	540
413.314	564
413.778	557
414.242	562
414.705	587
415.169	576
415.633	587
416.097	588
416.561	593
417.024	608
417.488	585
417.952	593
418.416	589
418.88	602
419.344	598
419.809	597
420.273	611
420.737	594
421.201	614
421.665	620
422.13	614
422.594	629
423.059	643
423.523	654
423.987	657
424.452	683
424.916	692
425.381	715
425.846	722
426.31	717
426.775	729
427.24	747
427.704	732
428.169	743
428.634	749
429.099	729
429.564	726
430.029	738
430.494	735
430.959	740
431.424	724
431.889	753
432.354	753
432.819	744
433.284	771
433.75	776
434.215	800
434.68	804
435.146	832
435.611	858
436.077	882
436.542	898
437.008	926
437.473	930
437.939	926
438.404	949
438.87	959
439.336	942
439.801	940
440.267	961
440.733	975
441.199	979
441.665	976
442.131	995
442.596	973
443.062	1016
443.529	1028
443.995	1041
444.461	1066
444.927	1107
445.393	1122
445.859	1156
446.325	1169
446.792	1239
447.258	1227
447.724	1253
448.191	1306
448.657	1322
449.124	1356
449.59	1345
450.057	1421
450.523	1435
450.99	1464
451.457	1451
451.923	1461
452.39	1440
452.857	1483
453.324	1482
453.791	1493
454.257	1498
454.724	1528
455.191	1512
455.658	1498
456.125	1561
456.592	1510
457.059	1547
457.527	1556
457.994	1603
458.461	1598
458.928	1635
459.396	1629
459.863	1691
460.33	1684
460.798	1682
461.265	1702
461.732	1683
462.2	1730
462.668	1717
463.135	1751
463.603	1696
464.07	1742
464.538	1684
465.006	1740
465.474	1688
465.941	1704
466.409	1716
466.877	1670
467.345	1726
467.813	1692
468.281	1709
468.749	1726
469.217	1718
469.685	1738
470.153	1745
470.621	1744
471.09	1750
471.558	1824
472.026	1802
472.494	1856
472.963	1873
473.431	1921
473.9	1948
474.368	1997
474.837	2035
475.305	2080
475.774	2105
476.242	2160
476.711	2174
477.18	2219
477.648	2188
478.117	2220
478.586	2193
479.055	2215
479.524	2246
479.993	2216
480.462	2207
480.93	2203
481.399	2213
481.869	2218
482.338	2175
482.807	2201
483.276	2190
483.745	2190
484.214	2244
484.684	2276
485.153	2263
485.622	2255
486.092	2329
486.561	2307
487.031	2375
487.5	2395
487.97	2378
488.439	2416
488.909	2472
489.378	2575
489.848	2576
490.318	2653
490.787	2736
491.257	2779
491.727	2837
492.197	2866
492.667	2842
493.137	2901
493.607	2902
494.077	2944
494.547	2925
495.017	2886
495.487	2923
495.957	2994
496.427	2918
496.897	2924
497.368	2953
497.838	2931
498.308	2961
498.779	2974
499.249	2972
499.719	2986
500.19	3007
500.66	3039
501.131	3062
501.602	3115
502.072	3124
502.543	3112
503.014	3225
503.484	3203
503.955	3277
504.426	3355
504.897	3327
505.368	3422
505.838	3499
506.309	3579
506.78	3686
507.251	3729
507.722	3811
508.194	3906
508.665	3920
509.136	3888
509.607	4014
510.078	4079
510.549	4154
511.021	4253
511.492	4229
511.964	4288
512.435	4300
512.906	4277
513.378	4319
513.849	4350
514.321	4371
514.793	4408
515.264	4451
515.736	4517
516.208	4607
516.679	4615
517.151	4665
517.623	4689
518.095	4729
518.567	4771
519.038	4875
519.51	4843
519.982	4934
520.454	4983
520.927	4983
521.399	5037
521.871	5112
522.343	5124
522.815	5172
523.287	5150
523.76	5188
524.232	5291
524.704	5337
525.177	5254
525.649	5239
526.122	5281
526.594	5176
527.067	5307
527.539	5343
528.012	5266
528.484	5259
528.957	5273
529.43	5254
529.903	5259
530.375	5418
530.848	5289
531.321	5375
531.794	5372
532.267	5463
532.74	5375
533.213	5308
533.686	5371
534.159	5333
534.632	5479
535.105	5469
535.578	5528
536.051	5584
536.525	5577
536.998	5523
537.471	5625
537.945	5566
538.418	5666
538.891	5693
539.365	5778
539.838	5813
540.312	5766
540.786	5858
541.259	5852
541.733	5896
542.206	5891
542.68	5797
543.154	5759
543.628	5742
544.101	5885
544.575	5851
545.049	5708
545.523	5826
545.997	5799
546.471	5819
546.945	5781
547.419	5869
547.893	5601
548.367	5680
548.842	5631
549.316	5643
549.79	5663
550.264	5650
550.739	5708
551.213	5723
551.687	5739
552.162	5721
552.636	5634
553.111	5629
553.585	5743
554.06	5646
554.534	5802
555.009	5753
555.484	5821
555.958	5898
556.433	5926
556.908	5977
557.383	5925
557.858	6053
558.333	6042
558.807	5926
559.282	5953
559.757	6110
560.232	6192
560.708	6092
561.183	6063
561.658	6119
562.133	6138
562.608	6090
563.083	6295
563.559	6104
564.034	6106
564.509	6078
564.985	6084
565.46	5998
565.936	6105
566.411	6130
566.887	6060
567.362	6117
567.838	6068
568.313	6143
568.789	6069
569.265	6111
569.74	6128
570.216	6057
570.692	6190
571.168	6184
571.644	6139
572.12	6098
572.596	6158
573.071	6138
573.547	6276
574.024	6296
574.5	6299
574.976	6317
575.452	6409
575.928	6406
576.404	6407
576.881	6623
577.357	6523
577.833	6563
578.31	6753
578.786	6802
579.262	6927
579.739	6812
580.215	6994
580.692	7004
581.169	7019
581.645	7035
582.122	7175
582.598	7126
583.075	7136
583.552	7224
584.029	7237
584.506	7205
584.982	7110
585.459	7237
585.936	7146
586.413	7251
586.89	7358
587.367	7225
587.844	7328
588.321	7247
588.799	7257
589.276	7189
589.753	7307
590.23	7312
590.707	7276
591.185	7307
591.662	7276
592.139	7311
592.617	7372
593.094	7393
593.572	7515
594.049	7565
594.527	7625
595.004	7610
595.482	7785
595.96	7701
596.437	7690
596.915	7854
597.393	7712
597.871	7884
598.349	7821
598.826	8017
599.304	8016
599.782	8160
600.26	8047
600.738	8131
601.216	8062
601.694	8157
602.173	8228
602.651	8265
603.129	8116
603.607	8160
604.085	8245
604.564	8252
605.042	8261
605.52	8206
605.999	8389
606.477	8215
606.956	8221
607.434	8201
607.913	8181
608.391	8182
608.87	8238
609.348	8190
609.827	8233
610.306	8264
610.785	8245
611.263	8289
611.742	8176
612.221	7954
612.7	8019
613.179	8059
613.658	7986
614.137	8185
614.616	8275
615.095	8091
615.574	8198
616.053	8292
616.532	8213
617.011	8167
617.491	8122
617.97	8094
618.449	8204
618.928	8299
619.408	8261
619.887	8374
620.367	8355
620.846	8403
621.326	8374
621.805	8577
622.285	8592
622.764	8607
623.244	8605
623.724	8667
624.203	8733
624.683	8528
625.163	8689
625.643	8690
626.123	8617
626.602	8783
627.082	8583
627.562	8581
628.042	8693
628.522	8623
629.002	8661
629.482	8705
629.963	8651
630.443	8495
630.923	8500
631.403	8563
631.883	8514
632.364	8591
632.844	8558
633.324	8535
633.805	8539
634.285	8450
634.766	8395
635.246	8395
635.727	8347
636.207	8381
636.688	8437
637.168	8477
637.649	8406
638.13	8372
638.611	8407
639.091	8376
639.572	8404
640.053	8385
640.534	8470
641.015	8429
641.496	8280
641.977	8389
642.458	8217
642.939	8167
643.42	8173
643.901	8198
644.382	8246
644.863	8227
645.345	8232
645.826	8156
646.307	8101
646.788	8302
647.27	8227
647.751	8297
648.233	8416
648.714	8255
649.196	8468
649.677	8419
650.159	8432
650.64	8335
651.122	8416
651.603	8263
652.085	8316
652.567	8286
653.049	8214
653.53	8218
654.012	8245
654.494	7989
654.976	8008
655.458	7980
655.94	8024
656.422	8183
656.904	8067
657.386	7947
657.868	8000
658.35	8075
658.833	8197
659.315	8153
659.797	8038
660.279	8069
660.762	8120
661.244	8041
661.726	7961
662.209	7943
662.691	7933
663.174	7796
663.656	7841
664.139	7884
664.621	7848
665.104	7771
665.587	7774
666.069	7729
666.552	7681
667.035	7586
667.517	7629
668	7702
668.483	7663
668.966	7537
669.449	7482
669.932	7544
670.415	7732
670.898	7682
671.381	7667
671.864	7680
672.347	7600
672.83	7599
673.313	7643
673.797	7564
674.28	7617
674.763	7573
675.247	7566
675.73	7588
676.213	7687
676.697	7744
677.18	7726
677.664	7767
678.147	7741
678.631	7754
679.114	7827
679.598	7854
680.082	7957
680.565	7975
681.049	7956
681.533	7955
682.017	8027
682.5	7955
682.984	7943
683.468	7876
683.952	7734
684.436	7879
684.92	7793
685.404	7823
685.888	7871
686.372	7785
686.856	7751
687.341	7840
687.825	7753
688.309	7805
688.793	7818
689.278	7780
689.762	7907
690.246	7862
690.731	7822
691.215	7786
691.7	7558
692.184	7615
692.669	7608
693.153	7627
693.638	7523
694.122	7515
694.607	7524
695.092	7367
695.577	7455
696.061	7353
696.546	7395
697.031	7378
697.516	7434
698.001	7402
698.486	7293
698.971	7415
699.456	7350
699.941	7371
700.426	7360
700.911	7423
701.396	7390
701.881	7370
702.366	7260
702.852	7212
703.337	7235
703.822	7205
704.308	7166
704.793	7156
705.278	7100
705.764	7113
706.249	7089
706.735	7100
707.22	7148
707.706	7034
708.191	7193
708.677	7212
709.163	7153
709.648	7182
710.134	7228
710.62	7140
711.106	7091
711.592	7164
712.077	7097
712.563	6927
713.049	6961
713.535	7131
714.021	7091
714.507	7027
714.993	6940
715.479	7074
715.966	6963
716.452	6948
716.938	6939
717.424	6750
717.91	6892
718.397	6796
718.883	6751
719.369	6788
719.856	6808
720.342	6891
720.829	6758
721.315	6735
721.802	6670
722.288	6706
722.775	6469
723.262	6305
723.748	6570
724.235	6516
724.722	6603
725.208	6495
725.695	6503
726.182	6481
726.669	6389
727.156	6406
727.643	6358
728.13	6371
728.617	6302
729.104	6280
729.591	6224
730.078	6272
730.565	6295
731.052	6228
731.539	6293
732.027	6208
732.514	6089
733.001	6135
733.488	6137
733.976	6176
734.463	6166
734.951	6138
735.438	6174
735.926	6051
736.413	6017
736.901	5899
737.388	5977
737.876	5920
738.364	5817
738.851	5823
739.339	5820
739.827	5850
740.314	5691
740.802	5760
741.29	5833
741.778	5776
742.266	5766
742.754	5779
743.242	5861
743.73	5768
744.218	5760
744.706	5661
745.194	5684
745.682	5655
746.17	5732
746.659	5822
747.147	5673
747.635	5691
748.123	5687
748.612	5619
749.1	5554
749.589	5545
750.077	5468
750.566	5381
751.054	5416
751.543	5439
752.031	5344
752.52	5344
753.008	5232
753.497	5207
753.986	5168
754.474	5141
754.963	5182
755.452	5109
755.941	5061
756.43	5046
756.919	4956
757.408	4880
757.896	4899
758.385	4951
758.875	4916
759.364	4884
759.853	4872
760.342	4808
760.831	4928
761.32	4930
761.809	4875
762.299	4899
762.788	4890
763.277	4846
763.767	4737
764.256	4677
764.745	4607
765.235	4675
765.724	4571
766.214	4616
766.703	4581
767.193	4501
767.683	4509
768.172	4420
768.662	4476
769.152	4490
769.641	4483
770.131	4343
770.621	4368
771.111	4285
771.601	4294
772.09	4250
772.58	4233
773.07	4256
773.56	4321
774.05	4223
774.54	4182
775.031	4116
775.521	4056
776.011	4053
776.501	4098
776.991	4077
777.482	4127
777.972	3980
778.462	3963
778.953	4011
779.443	4010
779.933	4028
780.424	3963
780.914	3964
781.405	3919
781.895	3842
782.386	3832
782.877	3790
783.367	3739
783.858	3748
784.349	3756
784.839	3728
785.33	3765
785.821	3720
786.312	3688
786.803	3677
787.293	3647
787.784	3581
788.275	3544
788.766	3492
789.257	3546
789.748	3464
790.24	3410
790.731	3441
791.222	3385
791.713	3380
792.204	3419
792.696	3372
793.187	3438
793.678	3421
794.169	3326
794.661	3352
795.152	3308
795.644	3266
796.135	3239
796.627	3248
797.118	3176
797.61	3176
798.101	3147
798.593	3178
799.085	3120
799.576	3105
800.068	3068
800.56	3088
801.052	3000
801.544	2994
802.035	3013
802.527	2970
803.019	2955
803.511	2961
804.003	2934
804.495	2937
804.987	2873
805.479	2793
805.971	2817
806.464	2830
806.956	2770
807.448	2768
807.94	2765
808.433	2745
808.925	2753
809.417	2766
809.91	2758
810.402	2686
810.894	2721
811.387	2714
811.879	2651
812.372	2648
812.865	2602
813.357	2617
813.85	2609
814.342	2563
814.835	2548
815.328	2534
815.821	2490
816.313	2470
816.806	2474
817.299	2468
817.792	2515
818.285	2506
818.778	2544
819.271	2523
819.764	2459
820.257	2446
820.75	2422
821.243	2409
821.736	2388
822.229	2415
822.722	2419
823.216	2473
