Data from lamp3bck_noballon_Subt4__1__342.txt Node

Date: Fri Apr 04 11:09:05 CEST 2025
User: fys-lab-0081
Spectrometer: S04999
Trigger mode: 0
Resolution mode: 1024 pixels
Integration Time (sec): 1.000000E-1
Scans to average: 1
Nonlinearity correction enabled: false
Boxcar width: 0
Baseline correction enabled: true
XAxis mode: Wavelengths
Number of Pixels in Spectrum: 1024
>>>>>Begin Spectral Data<<<<<
336.42	7
336.877	8
337.334	9
337.792	12
338.249	7
338.706	14
339.164	15
339.621	11
340.079	14
340.536	11
340.994	14
341.452	22
341.909	18
342.367	18
342.825	21
343.283	18
343.741	25
344.198	12
344.656	19
345.114	23
345.572	19
346.03	25
346.488	22
346.947	21
347.405	25
347.863	27
348.321	28
348.779	25
349.238	28
349.696	30
350.154	29
350.613	30
351.071	37
351.53	33
351.988	41
352.447	39
352.905	37
353.364	36
353.823	45
354.282	45
354.74	45
355.199	43
355.658	45
356.117	51
356.576	49
357.035	51
357.494	50
357.953	49
358.412	50
358.871	57
359.33	64
359.789	57
360.249	60
360.708	67
361.167	61
361.626	67
362.086	67
362.545	70
363.005	69
363.464	79
363.924	77
364.383	80
364.843	84
365.303	81
365.762	89
366.222	92
366.682	92
367.142	96
367.601	98
368.061	101
368.521	102
368.981	100
369.441	102
369.901	96
370.361	97
370.821	108
371.282	105
371.742	102
372.202	107
372.662	111
373.123	112
373.583	116
374.043	122
374.504	121
374.964	124
375.425	128
375.885	132
376.346	132
376.806	131
377.267	143
377.728	137
378.188	141
378.649	148
379.11	146
379.571	148
380.032	154
380.493	153
380.954	163
381.414	167
381.876	174
382.337	177
382.798	177
383.259	186
383.72	191
384.181	200
384.642	207
385.104	216
385.565	216
386.026	226
386.488	236
386.949	234
387.411	239
387.872	247
388.334	244
388.795	253
389.257	263
389.719	260
390.181	272
390.642	277
391.104	276
391.566	286
392.028	296
392.49	299
392.952	305
393.414	312
393.876	320
394.338	324
394.8	329
395.262	337
395.724	348
396.186	348
396.648	355
397.111	352
397.573	360
398.035	361
398.498	371
398.96	376
399.423	382
399.885	385
400.348	388
400.81	405
401.273	405
401.736	403
402.198	426
402.661	434
403.124	445
403.587	452
404.049	464.5
404.512	477
404.975	488
405.438	473
405.901	490
406.364	489
406.827	495
407.29	486
407.754	485
408.217	478
408.68	484
409.143	494
409.607	495
410.07	493
410.533	503
410.997	517
411.46	519
411.924	518
412.387	513
412.851	537
413.314	563
413.778	554
414.242	562
414.705	585
415.169	573
415.633	582
416.097	584
416.561	592
417.024	606
417.488	588
417.952	597
418.416	585
418.88	598
419.344	596
419.809	591
420.273	613
420.737	592
421.201	607
421.665	617
422.13	612
422.594	627
423.059	645
423.523	645
423.987	654
424.452	683
424.916	692
425.381	716
425.846	716
426.31	709
426.775	726
427.24	743
427.704	725
428.169	742
428.634	740
429.099	728
429.564	725
430.029	739
430.494	730
430.959	738
431.424	724
431.889	749
432.354	755
432.819	748
433.284	774
433.75	775
434.215	804
434.68	802
435.146	830
435.611	859
436.077	879
436.542	894
437.008	917
437.473	925
437.939	926
438.404	947
438.87	956
439.336	942
439.801	940
440.267	959
440.733	972
441.199	980
441.665	975
442.131	993
442.596	966
443.062	1007
443.529	1026
443.995	1042
444.461	1061
444.927	1105
445.393	1117
445.859	1154
446.325	1162
446.792	1237
447.258	1226
447.724	1248
448.191	1304
448.657	1315
449.124	1361
449.59	1349
450.057	1415
450.523	1426
450.99	1456
451.457	1448
451.923	1464
452.39	1442
452.857	1479
453.324	1472
453.791	1492
454.257	1498
454.724	1524
455.191	1506
455.658	1498
456.125	1559
456.592	1523
457.059	1545
457.527	1556
457.994	1593
458.461	1602
458.928	1637
459.396	1627
459.863	1684
460.33	1685
460.798	1681
461.265	1692
461.732	1680
462.2	1723
462.668	1711
463.135	1744
463.603	1695
464.07	1733
464.538	1678
465.006	1735
465.474	1685
465.941	1702
466.409	1711
466.877	1672
467.345	1718
467.813	1680
468.281	1700
468.749	1723
469.217	1716
469.685	1735
470.153	1744
470.621	1738
471.09	1742
471.558	1820
472.026	1794
472.494	1850
472.963	1863
473.431	1919
473.9	1944
474.368	1991
474.837	2031
475.305	2075
475.774	2105
476.242	2161
476.711	2176
477.18	2222
477.648	2178
478.117	2212
478.586	2189
479.055	2214
479.524	2237
479.993	2209
480.462	2204
480.93	2207
481.399	2202
481.869	2221
482.338	2181
482.807	2201
483.276	2189
483.745	2181
484.214	2239
484.684	2278
485.153	2260
485.622	2255
486.092	2324
486.561	2299
487.031	2362
487.5	2399
487.97	2386
488.439	2419
488.909	2464
489.378	2572
489.848	2572
490.318	2637
490.787	2732
491.257	2772
491.727	2833
492.197	2864
492.667	2835
493.137	2888
493.607	2893
494.077	2945
494.547	2918
495.017	2880
495.487	2925
495.957	2989
496.427	2919
496.897	2921
497.368	2955
497.838	2933
498.308	2961
498.779	2965
499.249	2959
499.719	2981
500.19	2999
500.66	3035
501.131	3051
501.602	3120
502.072	3108
502.543	3100
503.014	3213
503.484	3196
503.955	3273
504.426	3353
504.897	3322
505.368	3418
505.838	3497
506.309	3581
506.78	3682
507.251	3724
507.722	3791
508.194	3903
508.665	3921
509.136	3893
509.607	4000
510.078	4085
510.549	4143
511.021	4237
511.492	4224
511.964	4281
512.435	4303
512.906	4266
513.378	4306
513.849	4341
514.321	4371
514.793	4411
515.264	4449
515.736	4514
516.208	4600
516.679	4618
517.151	4659
517.623	4687
518.095	4721
518.567	4765
519.038	4865
519.51	4845
519.982	4921
520.454	4976
520.927	4970
521.399	5028
521.871	5106
522.343	5119
522.815	5164
523.287	5148
523.76	5186
524.232	5263
524.704	5333
525.177	5255
525.649	5231
526.122	5269
526.594	5173
527.067	5305
527.539	5326
528.012	5261
528.484	5258
528.957	5272
529.43	5240
529.903	5244
530.375	5406
530.848	5279
531.321	5374
531.794	5364
532.267	5452
532.74	5367
533.213	5294
533.686	5366
534.159	5329
534.632	5463
535.105	5462
535.578	5516
536.051	5575
536.525	5567
536.998	5530
537.471	5610
537.945	5555
538.418	5648
538.891	5686
539.365	5771
539.838	5813
540.312	5759
540.786	5843
541.259	5828
541.733	5883
542.206	5884
542.68	5803
543.154	5747
543.628	5722
544.101	5874
544.575	5844
545.049	5705
545.523	5815
545.997	5782
546.471	5814
546.945	5773
547.419	5866
547.893	5590
548.367	5671
548.842	5631
549.316	5628
549.79	5656
550.264	5648
550.739	5690
551.213	5716
551.687	5725
552.162	5721
552.636	5631
553.111	5618
553.585	5731
554.06	5643
554.534	5786
555.009	5739
555.484	5820
555.958	5890
556.433	5926
556.908	5978
557.383	5923
557.858	6053
558.333	6024
558.807	5923
559.282	5946
559.757	6102
560.232	6183
560.708	6080
561.183	6063
561.658	6119
562.133	6131
562.608	6072
563.083	6262
563.559	6078
564.034	6098
564.509	6069
564.985	6069
565.46	5995
565.936	6092
566.411	6113
566.887	6045
567.362	6102
567.838	6067
568.313	6139
568.789	6064
569.265	6111
569.74	6110
570.216	6042
570.692	6179
571.168	6168
571.644	6127
572.12	6083
572.596	6157
573.071	6137
573.547	6263
574.024	6275
574.5	6271
574.976	6309
575.452	6397
575.928	6385
576.404	6393
576.881	6620
577.357	6505
577.833	6555
578.31	6740
578.786	6804
579.262	6916
579.739	6789
580.215	6974
580.692	6997
581.169	6994
581.645	7025
582.122	7155
582.598	7111
583.075	7131
583.552	7223
584.029	7230
584.506	7195
584.982	7108
585.459	7230
585.936	7130
586.413	7246
586.89	7333
587.367	7213
587.844	7327
588.321	7228
588.799	7236
589.276	7194
589.753	7295
590.23	7293
590.707	7273
591.185	7285
591.662	7266
592.139	7299
592.617	7362
593.094	7385
593.572	7508
594.049	7554
594.527	7616
595.004	7613
595.482	7766
595.96	7694
596.437	7678
596.915	7849
597.393	7702
597.871	7877
598.349	7810
598.826	8002
599.304	7996
599.782	8141
600.26	8026
600.738	8116
601.216	8059
601.694	8145
602.173	8212
602.651	8255
603.129	8108
603.607	8126
604.085	8232
604.564	8239
605.042	8255
605.52	8196
605.999	8382
606.477	8205
606.956	8202
607.434	8180
607.913	8158
608.391	8172
608.87	8225
609.348	8197
609.827	8221
610.306	8263
610.785	8248
611.263	8269
611.742	8166
612.221	7952
612.7	8021
613.179	8043
613.658	7980
614.137	8176
614.616	8252
615.095	8081
615.574	8197
616.053	8290
616.532	8196
617.011	8144
617.491	8119
617.97	8085
618.449	8192
618.928	8282
619.408	8255
619.887	8362
620.367	8350
620.846	8386
621.326	8354
621.805	8552
622.285	8578
622.764	8607
623.244	8591
623.724	8656
624.203	8728
624.683	8522
625.163	8671
625.643	8671
626.123	8602
626.602	8759
627.082	8564
627.562	8560
628.042	8676
628.522	8599
629.002	8646
629.482	8710
629.963	8638
630.443	8478
630.923	8497
631.403	8549
631.883	8500
632.364	8571
632.844	8544
633.324	8530
633.805	8518
634.285	8430
634.766	8397
635.246	8382
635.727	8335
636.207	8367
636.688	8427
637.168	8469
637.649	8391
638.13	8370
638.611	8390
639.091	8357
639.572	8391
640.053	8383
640.534	8462
641.015	8430
641.496	8271
641.977	8374
642.458	8201
642.939	8148
643.42	8161
643.901	8186
644.382	8237
644.863	8220
645.345	8223
645.826	8138
646.307	8091
646.788	8297
647.27	8218
647.751	8296
648.233	8392
648.714	8238
649.196	8473
649.677	8400
650.159	8425
650.64	8326
651.122	8418
651.603	8254
652.085	8307
652.567	8280
653.049	8194
653.53	8198
654.012	8239
654.494	7991
654.976	7997
655.458	7955
655.94	8005
656.422	8177
656.904	8055
657.386	7943
657.868	7994
658.35	8061
658.833	8199
659.315	8142
659.797	8028
660.279	8062
660.762	8116
661.244	8026
661.726	7941
662.209	7934
662.691	7907
663.174	7778
663.656	7830
664.139	7871
664.621	7833
665.104	7759
665.587	7760
666.069	7720
666.552	7668
667.035	7563
667.517	7611
668	7686
668.483	7637
668.966	7530
669.449	7467
669.932	7534
670.415	7714
670.898	7655
671.381	7655
671.864	7668
672.347	7588
672.83	7585
673.313	7633
673.797	7566
674.28	7616
674.763	7566
675.247	7548
675.73	7569
676.213	7680
676.697	7723
677.18	7721
677.664	7745
678.147	7736
678.631	7744
679.114	7798
679.598	7850
680.082	7950
680.565	7970
681.049	7954
681.533	7937
682.017	8009
682.5	7941
682.984	7935
683.468	7865
683.952	7726
684.436	7865
684.92	7771
685.404	7810
685.888	7863
686.372	7782
686.856	7738
687.341	7837
687.825	7737
688.309	7781
688.793	7789
689.278	7772
689.762	7887
690.246	7837
690.731	7807
691.215	7779
691.7	7542
692.184	7597
692.669	7594
693.153	7627
693.638	7503
694.122	7517
694.607	7525
695.092	7351
695.577	7440
696.061	7340
696.546	7384
697.031	7364
697.516	7422
698.001	7397
698.486	7303
698.971	7406
699.456	7339
699.941	7366
700.426	7344
700.911	7415
701.396	7362
701.881	7361
702.366	7242
702.852	7204
703.337	7229
703.822	7203
704.308	7146
704.793	7152
705.278	7092
705.764	7093
706.249	7080
706.735	7089
707.22	7132
707.706	7028
708.191	7187
708.677	7209
709.163	7135
709.648	7170
710.134	7224
710.62	7134
711.106	7077
711.592	7155
712.077	7098
712.563	6913
713.049	6954
713.535	7113
714.021	7073
714.507	7017
714.993	6931
715.479	7060
715.966	6971
716.452	6940
716.938	6930
717.424	6737
717.91	6878
718.397	6782
718.883	6732
719.369	6782
719.856	6795
720.342	6899
720.829	6759
721.315	6706
721.802	6660
722.288	6698
722.775	6463
723.262	6293
723.748	6570
724.235	6512
724.722	6597
725.208	6480
725.695	6489
726.182	6473
726.669	6380
727.156	6396
727.643	6347
728.13	6351
728.617	6291
729.104	6267
729.591	6221
730.078	6262
730.565	6284
731.052	6224
731.539	6284
732.027	6191
732.514	6083
733.001	6137
733.488	6131
733.976	6171
734.463	6162
734.951	6126
735.438	6176
735.926	6049
736.413	6003
736.901	5889
737.388	5971
737.876	5910
738.364	5813
738.851	5813
739.339	5809
739.827	5858
740.314	5695
740.802	5751
741.29	5821
741.778	5758
742.266	5758
742.754	5774
743.242	5857
743.73	5767
744.218	5749
744.706	5634
745.194	5684
745.682	5638
746.17	5727
746.659	5791
747.147	5662
747.635	5684
748.123	5672
748.612	5610
749.1	5545
749.589	5526
750.077	5463
750.566	5373
751.054	5412
751.543	5426
752.031	5338
752.52	5343
753.008	5225
753.497	5200
753.986	5155
754.474	5132
754.963	5174
755.452	5111
755.941	5067
756.43	5033
756.919	4965
757.408	4870
757.896	4900
758.385	4943
758.875	4912
759.364	4873
759.853	4859
760.342	4794
760.831	4932
761.32	4916
761.809	4868
762.299	4899
762.788	4882
763.277	4844
763.767	4733
764.256	4678
764.745	4604
765.235	4681
765.724	4557
766.214	4616
766.703	4564
767.193	4493
767.683	4502
768.172	4419
768.662	4471
769.152	4479
769.641	4485
770.131	4343
770.621	4365
771.111	4270
771.601	4289
772.09	4249
772.58	4228
773.07	4264
773.56	4320
774.05	4217
774.54	4174
775.031	4118
775.521	4052
776.011	4049
776.501	4089
776.991	4068
777.482	4127
777.972	3986
778.462	3952
778.953	4019
779.443	4009
779.933	4022
780.424	3953
780.914	3958
781.405	3917
781.895	3837
782.386	3825
782.877	3794
783.367	3732
783.858	3739
784.349	3756
784.839	3730
785.33	3754
785.821	3726
786.312	3690
786.803	3678
787.293	3655
787.784	3578
788.275	3532
788.766	3488
789.257	3543
789.748	3458
790.24	3409
790.731	3433
791.222	3379
791.713	3379
792.204	3411
792.696	3365
793.187	3431
793.678	3417
794.169	3328
794.661	3353
795.152	3302
795.644	3258
796.135	3235
796.627	3240
797.118	3170
797.61	3171
798.101	3140
798.593	3167
799.085	3117
799.576	3103
800.068	3057
800.56	3074
801.052	3004
801.544	2997
802.035	3001
802.527	2959
803.019	2956
803.511	2954
804.003	2928
804.495	2925
804.987	2862
805.479	2793
805.971	2813
806.464	2838
806.956	2771
807.448	2766
807.94	2763
808.433	2746
808.925	2754
809.417	2764
809.91	2751
810.402	2680
810.894	2716
811.387	2718
811.879	2655
812.372	2637
812.865	2601
813.357	2610
813.85	2604
814.342	2563
814.835	2546
815.328	2535
815.821	2484
816.313	2468
816.806	2467
817.299	2465
817.792	2508
818.285	2506
818.778	2540
819.271	2513
819.764	2457
820.257	2444
820.75	2421
821.243	2406
821.736	2388
822.229	2419
822.722	2410
823.216	2469
