Data from lamp3bck_noballon_Subt4__12__353.txt Node

Date: Fri Apr 04 11:09:06 CEST 2025
User: fys-lab-0081
Spectrometer: S04999
Trigger mode: 0
Resolution mode: 1024 pixels
Integration Time (sec): 1.000000E-1
Scans to average: 1
Nonlinearity correction enabled: false
Boxcar width: 0
Baseline correction enabled: true
XAxis mode: Wavelengths
Number of Pixels in Spectrum: 1024
>>>>>Begin Spectral Data<<<<<
336.42	7
336.877	6
337.334	11
337.792	11
338.249	11
338.706	17
339.164	15
339.621	13
340.079	14
340.536	11
340.994	13
341.452	16
341.909	17
342.367	17
342.825	22
343.283	21
343.741	21
344.198	16
344.656	18
345.114	22
345.572	18
346.03	24
346.488	23
346.947	22
347.405	26
347.863	22
348.321	21
348.779	25
349.238	29
349.696	31
350.154	31
350.613	31
351.071	35
351.53	37
351.988	36
352.447	41
352.905	37
353.364	38
353.823	47
354.282	42
354.74	44
355.199	45
355.658	48
356.117	50
356.576	46
357.035	50
357.494	51
357.953	54
358.412	55
358.871	57
359.33	57
359.789	57
360.249	61
360.708	70
361.167	64
361.626	67
362.086	67
362.545	67
363.005	73
363.464	78
363.924	78
364.383	82
364.843	87
365.303	83
365.762	87
366.222	91
366.682	91
367.142	97
367.601	97
368.061	92
368.521	99
368.981	98
369.441	106
369.901	94
370.361	101
370.821	110
371.282	109
371.742	108
372.202	112
372.662	114
373.123	114
373.583	118
374.043	122
374.504	121
374.964	122
375.425	127
375.885	133
376.346	134
376.806	129
377.267	138
377.728	136
378.188	142
378.649	140
379.11	143
379.571	150
380.032	155
380.493	157
380.954	161
381.414	166
381.876	168
382.337	176
382.798	179
383.259	191
383.72	187
384.181	200
384.642	205
385.104	215
385.565	211
386.026	228
386.488	236
386.949	233
387.411	243
387.872	245
388.334	249
388.795	253
389.257	258
389.719	265
390.181	268
390.642	282
391.104	277
391.566	288
392.028	291
392.49	298
392.952	303
393.414	309
393.876	318
394.338	331
394.8	329
395.262	340
395.724	344
396.186	346
396.648	354
397.111	349
397.573	356
398.035	353
398.498	371
398.96	379
399.423	378
399.885	383
400.348	385
400.81	407
401.273	408
401.736	402
402.198	425
402.661	437
403.124	440
403.587	449
404.049	461.5
404.512	474
404.975	488
405.438	474
405.901	483
406.364	481
406.827	496
407.29	486
407.754	483
408.217	476
408.68	480
409.143	491
409.607	495
410.07	496
410.533	499
410.997	517
411.46	514
411.924	518
412.387	516
412.851	541
413.314	564
413.778	551
414.242	564
414.705	579
415.169	574
415.633	580
416.097	586
416.561	592
417.024	605
417.488	582
417.952	595
418.416	585
418.88	600
419.344	594
419.809	593
420.273	609
420.737	595
421.201	612
421.665	612
422.13	611
422.594	628
423.059	640
423.523	646
423.987	660
424.452	678
424.916	691
425.381	713
425.846	715
426.31	711
426.775	726
427.24	740
427.704	730
428.169	745
428.634	738
429.099	723
429.564	723
430.029	734
430.494	733
430.959	739
431.424	719
431.889	749
432.354	747
432.819	744
433.284	771
433.75	768
434.215	797
434.68	805
435.146	826
435.611	853
436.077	874
436.542	893
437.008	920
437.473	923
437.939	923
438.404	948
438.87	956
439.336	938
439.801	936
440.267	963
440.733	972
441.199	975
441.665	968
442.131	992
442.596	974
443.062	1004
443.529	1018
443.995	1035
444.461	1065
444.927	1106
445.393	1112
445.859	1153
446.325	1163
446.792	1232
447.258	1223
447.724	1253
448.191	1303
448.657	1315
449.124	1353
449.59	1347
450.057	1417
450.523	1423
450.99	1456
451.457	1439
451.923	1462
452.39	1439
452.857	1476
453.324	1474
453.791	1485
454.257	1490
454.724	1516
455.191	1505
455.658	1498
456.125	1559
456.592	1513
457.059	1536
457.527	1554
457.994	1595
458.461	1592
458.928	1626
459.396	1619
459.863	1685
460.33	1679
460.798	1678
461.265	1694
461.732	1678
462.2	1724
462.668	1718
463.135	1743
463.603	1688
464.07	1732
464.538	1678
465.006	1727
465.474	1679
465.941	1692
466.409	1708
466.877	1672
467.345	1712
467.813	1685
468.281	1696
468.749	1721
469.217	1716
469.685	1724
470.153	1749
470.621	1735
471.09	1745
471.558	1816
472.026	1794
472.494	1849
472.963	1869
473.431	1921
473.9	1941
474.368	1992
474.837	2029
475.305	2068
475.774	2091
476.242	2157
476.711	2175
477.18	2207
477.648	2175
478.117	2206
478.586	2185
479.055	2203
479.524	2234
479.993	2211
480.462	2195
480.93	2199
481.399	2207
481.869	2210
482.338	2176
482.807	2200
483.276	2193
483.745	2172
484.214	2236
484.684	2275
485.153	2251
485.622	2252
486.092	2325
486.561	2294
487.031	2358
487.5	2393
487.97	2383
488.439	2412
488.909	2459
489.378	2563
489.848	2565
490.318	2633
490.787	2732
491.257	2765
491.727	2820
492.197	2850
492.667	2827
493.137	2880
493.607	2890
494.077	2937
494.547	2915
495.017	2869
495.487	2917
495.957	2979
496.427	2910
496.897	2921
497.368	2943
497.838	2917
498.308	2945
498.779	2956
499.249	2945
499.719	2972
500.19	2983
500.66	3023
501.131	3053
501.602	3113
502.072	3100
502.543	3101
503.014	3215
503.484	3186
503.955	3260
504.426	3342
504.897	3316
505.368	3410
505.838	3493
506.309	3571
506.78	3677
507.251	3722
507.722	3790
508.194	3891
508.665	3900
509.136	3880
509.607	3984
510.078	4072
510.549	4143
511.021	4225
511.492	4222
511.964	4266
512.435	4291
512.906	4263
513.378	4301
513.849	4333
514.321	4351
514.793	4405
515.264	4452
515.736	4500
516.208	4593
516.679	4604
517.151	4659
517.623	4670
518.095	4712
518.567	4760
519.038	4850
519.51	4836
519.982	4904
520.454	4958
520.927	4960
521.399	5020
521.871	5100
522.343	5112
522.815	5158
523.287	5129
523.76	5180
524.232	5264
524.704	5322
525.177	5241
525.649	5230
526.122	5258
526.594	5159
527.067	5293
527.539	5318
528.012	5258
528.484	5247
528.957	5257
529.43	5234
529.903	5237
530.375	5398
530.848	5276
531.321	5365
531.794	5346
532.267	5443
532.74	5353
533.213	5294
533.686	5351
534.159	5320
534.632	5456
535.105	5451
535.578	5496
536.051	5560
536.525	5566
536.998	5516
537.471	5604
537.945	5551
538.418	5637
538.891	5667
539.365	5757
539.838	5791
540.312	5759
540.786	5831
541.259	5822
541.733	5868
542.206	5874
542.68	5780
543.154	5744
543.628	5717
544.101	5862
544.575	5829
545.049	5686
545.523	5815
545.997	5780
546.471	5806
546.945	5746
547.419	5849
547.893	5585
548.367	5658
548.842	5623
549.316	5622
549.79	5645
550.264	5627
550.739	5686
551.213	5699
551.687	5718
552.162	5704
552.636	5614
553.111	5609
553.585	5724
554.06	5622
554.534	5784
555.009	5740
555.484	5806
555.958	5883
556.433	5922
556.908	5958
557.383	5910
557.858	6044
558.333	6023
558.807	5905
559.282	5935
559.757	6095
560.232	6170
560.708	6074
561.183	6046
561.658	6105
562.133	6118
562.608	6071
563.083	6259
563.559	6079
564.034	6088
564.509	6070
564.985	6055
565.46	5979
565.936	6068
566.411	6107
566.887	6039
567.362	6091
567.838	6050
568.313	6120
568.789	6056
569.265	6096
569.74	6104
570.216	6029
570.692	6172
571.168	6161
571.644	6119
572.12	6075
572.596	6140
573.071	6117
573.547	6252
574.024	6266
574.5	6270
574.976	6304
575.452	6383
575.928	6380
576.404	6385
576.881	6604
577.357	6503
577.833	6551
578.31	6729
578.786	6780
579.262	6897
579.739	6775
580.215	6966
580.692	6991
581.169	6988
581.645	7007
582.122	7152
582.598	7103
583.075	7108
583.552	7212
584.029	7218
584.506	7190
584.982	7085
585.459	7218
585.936	7127
586.413	7227
586.89	7322
587.367	7201
587.844	7309
588.321	7232
588.799	7237
589.276	7184
589.753	7277
590.23	7286
590.707	7258
591.185	7286
591.662	7271
592.139	7286
592.617	7357
593.094	7374
593.572	7507
594.049	7546
594.527	7598
595.004	7597
595.482	7767
595.96	7694
596.437	7675
596.915	7834
597.393	7696
597.871	7865
598.349	7793
598.826	7981
599.304	7979
599.782	8117
600.26	8014
600.738	8116
601.216	8043
601.694	8129
602.173	8205
602.651	8247
603.129	8097
603.607	8118
604.085	8220
604.564	8228
605.042	8248
605.52	8188
605.999	8368
606.477	8189
606.956	8195
607.434	8172
607.913	8149
608.391	8159
608.87	8212
609.348	8172
609.827	8229
610.306	8246
610.785	8230
611.263	8250
611.742	8152
612.221	7932
612.7	8002
613.179	8032
613.658	7954
614.137	8167
614.616	8238
615.095	8071
615.574	8166
616.053	8278
616.532	8194
617.011	8148
617.491	8105
617.97	8073
618.449	8166
618.928	8263
619.408	8246
619.887	8341
620.367	8333
620.846	8362
621.326	8343
621.805	8546
622.285	8552
622.764	8582
623.244	8583
623.724	8641
624.203	8697
624.683	8518
625.163	8671
625.643	8659
626.123	8593
626.602	8762
627.082	8560
627.562	8550
628.042	8676
628.522	8596
629.002	8637
629.482	8681
629.963	8614
630.443	8468
630.923	8475
631.403	8543
631.883	8483
632.364	8551
632.844	8537
633.324	8516
633.805	8516
634.285	8430
634.766	8380
635.246	8384
635.727	8319
636.207	8358
636.688	8412
637.168	8452
637.649	8389
638.13	8359
638.611	8391
639.091	8345
639.572	8385
640.053	8372
640.534	8451
641.015	8410
641.496	8251
641.977	8367
642.458	8188
642.939	8141
643.42	8144
643.901	8170
644.382	8225
644.863	8207
645.345	8215
645.826	8126
646.307	8067
646.788	8283
647.27	8207
647.751	8270
648.233	8385
648.714	8230
649.196	8450
649.677	8402
650.159	8418
650.64	8321
651.122	8405
651.603	8245
652.085	8296
652.567	8264
653.049	8183
653.53	8199
654.012	8228
654.494	7971
654.976	7990
655.458	7944
655.94	8010
656.422	8157
656.904	8040
657.386	7920
657.868	7984
658.35	8041
658.833	8174
659.315	8131
659.797	8013
660.279	8051
660.762	8109
661.244	8024
661.726	7929
662.209	7923
662.691	7899
663.174	7764
663.656	7816
664.139	7855
664.621	7821
665.104	7739
665.587	7754
666.069	7709
666.552	7661
667.035	7565
667.517	7600
668	7673
668.483	7640
668.966	7524
669.449	7455
669.932	7519
670.415	7700
670.898	7657
671.381	7648
671.864	7664
672.347	7579
672.83	7579
673.313	7639
673.797	7553
674.28	7600
674.763	7547
675.247	7542
675.73	7564
676.213	7661
676.697	7709
677.18	7707
677.664	7732
678.147	7723
678.631	7726
679.114	7789
679.598	7832
680.082	7939
680.565	7952
681.049	7945
681.533	7928
682.017	7988
682.5	7933
682.984	7922
683.468	7853
683.952	7704
684.436	7853
684.92	7766
685.404	7802
685.888	7855
686.372	7760
686.856	7726
687.341	7823
687.825	7734
688.309	7775
688.793	7778
689.278	7752
689.762	7887
690.246	7836
690.731	7811
691.215	7762
691.7	7531
692.184	7595
692.669	7586
693.153	7615
693.638	7490
694.122	7496
694.607	7503
695.092	7341
695.577	7432
696.061	7339
696.546	7378
697.031	7356
697.516	7411
698.001	7383
698.486	7292
698.971	7395
699.456	7330
699.941	7341
700.426	7333
700.911	7406
701.396	7367
701.881	7355
702.366	7253
702.852	7191
703.337	7226
703.822	7196
704.308	7134
704.793	7133
705.278	7082
705.764	7096
706.249	7070
706.735	7066
707.22	7139
707.706	7021
708.191	7182
708.677	7207
709.163	7135
709.648	7164
710.134	7203
710.62	7113
711.106	7084
711.592	7143
712.077	7089
712.563	6912
713.049	6955
713.535	7109
714.021	7066
714.507	7019
714.993	6928
715.479	7049
715.966	6965
716.452	6940
716.938	6920
717.424	6733
717.91	6867
718.397	6769
718.883	6723
719.369	6764
719.856	6788
720.342	6878
720.829	6743
721.315	6701
721.802	6660
722.288	6690
722.775	6464
723.262	6281
723.748	6538
724.235	6512
724.722	6586
725.208	6475
725.695	6482
726.182	6466
726.669	6375
727.156	6390
727.643	6334
728.13	6348
728.617	6281
729.104	6258
729.591	6207
730.078	6251
730.565	6265
731.052	6211
731.539	6265
732.027	6184
732.514	6074
733.001	6126
733.488	6117
733.976	6153
734.463	6154
734.951	6130
735.438	6155
735.926	6034
736.413	6002
736.901	5887
737.388	5964
737.876	5909
738.364	5807
738.851	5800
739.339	5800
739.827	5832
740.314	5683
740.802	5748
741.29	5819
741.778	5754
742.266	5739
742.754	5768
743.242	5849
743.73	5754
744.218	5729
744.706	5644
745.194	5668
745.682	5632
746.17	5715
746.659	5800
747.147	5668
747.635	5672
748.123	5678
748.612	5604
749.1	5531
749.589	5540
750.077	5458
750.566	5370
751.054	5406
751.543	5416
752.031	5334
752.52	5333
753.008	5217
753.497	5186
753.986	5163
754.474	5128
754.963	5168
755.452	5100
755.941	5053
756.43	5031
756.919	4942
757.408	4869
757.896	4884
758.385	4926
758.875	4909
759.364	4880
759.853	4866
760.342	4790
760.831	4924
761.32	4913
761.809	4868
762.299	4884
762.788	4870
763.277	4838
763.767	4726
764.256	4675
764.745	4585
765.235	4671
765.724	4567
766.214	4612
766.703	4571
767.193	4491
767.683	4494
768.172	4411
768.662	4476
769.152	4474
769.641	4476
770.131	4343
770.621	4360
771.111	4268
771.601	4268
772.09	4253
772.58	4219
773.07	4249
773.56	4308
774.05	4214
774.54	4166
775.031	4109
775.521	4044
776.011	4042
776.501	4087
776.991	4061
777.482	4134
777.972	3975
778.462	3950
778.953	4010
779.443	4008
779.933	4020
780.424	3942
780.914	3950
781.405	3912
781.895	3840
782.386	3830
782.877	3788
783.367	3723
783.858	3731
784.349	3754
784.839	3712
785.33	3748
785.821	3715
786.312	3685
786.803	3678
787.293	3645
787.784	3577
788.275	3530
788.766	3490
789.257	3548
789.748	3454
790.24	3401
790.731	3436
791.222	3383
791.713	3373
792.204	3409
792.696	3358
793.187	3425
793.678	3415
794.169	3318
794.661	3345
795.152	3291
795.644	3249
796.135	3233
796.627	3239
797.118	3163
797.61	3173
798.101	3139
798.593	3173
799.085	3106
799.576	3100
800.068	3058
800.56	3072
801.052	2996
801.544	2986
802.035	3004
802.527	2959
803.019	2958
803.511	2952
804.003	2930
804.495	2920
804.987	2864
805.479	2792
805.971	2814
806.464	2823
806.956	2764
807.448	2761
807.94	2755
808.433	2737
808.925	2749
809.417	2759
809.91	2748
810.402	2688
810.894	2708
811.387	2712
811.879	2653
812.372	2635
812.865	2599
813.357	2606
813.85	2598
814.342	2563
814.835	2547
815.328	2525
815.821	2475
816.313	2471
816.806	2468
817.299	2465
817.792	2505
818.285	2500
818.778	2542
819.271	2514
819.764	2454
820.257	2445
820.75	2414
821.243	2403
821.736	2378
822.229	2418
822.722	2417
823.216	2466
