Data from lamp4helium_sterk_Subt4__25__149.txt Node

Date: Wed Apr 09 09:56:41 CEST 2025
User: fys-lab-0081
Spectrometer: S04999
Trigger mode: 0
Resolution mode: 1024 pixels
Integration Time (sec): 1.000000E-1
Scans to average: 1
Nonlinearity correction enabled: false
Boxcar width: 0
Baseline correction enabled: true
XAxis mode: Wavelengths
Number of Pixels in Spectrum: 1024
>>>>>Begin Spectral Data<<<<<
336.42	-5
336.877	-4
337.334	-1
337.792	1
338.249	4
338.706	-1
339.164	-1
339.621	1
340.079	3
340.536	5
340.994	3
341.452	-4
341.909	-2
342.367	-2
342.825	-6
343.283	-1
343.741	-1
344.198	2
344.656	3
345.114	-3
345.572	-1
346.03	3
346.488	1
346.947	-5
347.405	0
347.863	-2
348.321	6
348.779	0
349.238	1
349.696	0
350.154	2
350.613	-2
351.071	0
351.53	1
351.988	0
352.447	-3
352.905	0
353.364	-5
353.823	0
354.282	-1
354.74	-5
355.199	2
355.658	4
356.117	3
356.576	2
357.035	-4
357.494	3
357.953	1
358.412	2
358.871	-5
359.33	0
359.789	3
360.249	-2
360.708	2
361.167	0
361.626	3
362.086	-4
362.545	2
363.005	4
363.464	-4
363.924	-1
364.383	2
364.843	-3
365.303	0
365.762	-1
366.222	-5
366.682	1
367.142	2
367.601	-3
368.061	-3
368.521	2
368.981	-2
369.441	0
369.901	4
370.361	-2
370.821	-1
371.282	3
371.742	4
372.202	2
372.662	2
373.123	-2
373.583	-3
374.043	-1
374.504	-7
374.964	-2
375.425	1
375.885	1
376.346	-3
376.806	0
377.267	3
377.728	2
378.188	-2
378.649	4
379.11	0
379.571	-1
380.032	1
380.493	-1
380.954	4
381.414	-2
381.876	-4
382.337	-3
382.798	-1
383.259	5
383.72	0
384.181	3
384.642	2
385.104	4
385.565	7
386.026	2
386.488	2
386.949	2
387.411	0
387.872	-2
388.334	1
388.795	3
389.257	6
389.719	1
390.181	-2
390.642	3
391.104	-1
391.566	-2
392.028	7
392.49	-2
392.952	3
393.414	4
393.876	-3
394.338	4
394.8	-3
395.262	3
395.724	1
396.186	-1
396.648	3
397.111	-1
397.573	3
398.035	-1
398.498	0
398.96	-2
399.423	1
399.885	7
400.348	-1
400.81	7
401.273	0
401.736	3
402.198	0
402.661	0
403.124	-6
403.587	0
404.049	3
404.512	6
404.975	2
405.438	0
405.901	1
406.364	5
406.827	3
407.29	5
407.754	6
408.217	1
408.68	-1
409.143	0
409.607	4
410.07	4
410.533	-2
410.997	-2
411.46	-3
411.924	1
412.387	2
412.851	0
413.314	-1
413.778	1
414.242	2
414.705	-1
415.169	2
415.633	0
416.097	-1
416.561	0
417.024	1
417.488	8
417.952	-1
418.416	11
418.88	1
419.344	2
419.809	0
420.273	-1
420.737	2
421.201	-7
421.665	5
422.13	4
422.594	0
423.059	3
423.523	-2
423.987	-1
424.452	0
424.916	3
425.381	-3
425.846	2
426.31	-1
426.775	1
427.24	4
427.704	3
428.169	4
428.634	3
429.099	0
429.564	0
430.029	2
430.494	6
430.959	1
431.424	0
431.889	1
432.354	3
432.819	0
433.284	-1
433.75	0
434.215	0
434.68	2
435.146	1
435.611	16
436.077	22
436.542	18
437.008	6
437.473	5
437.939	4
438.404	4
438.87	5
439.336	2
439.801	4
440.267	2
440.733	6
441.199	2
441.665	0
442.131	5
442.596	5
443.062	0
443.529	3
443.995	4
444.461	-2
444.927	8
445.393	3
445.859	4
446.325	3
446.792	7
447.258	4
447.724	5
448.191	5
448.657	2
449.124	9
449.59	4
450.057	8
450.523	3
450.99	2
451.457	3
451.923	2
452.39	1
452.857	7
453.324	1
453.791	2
454.257	5
454.724	6
455.191	5
455.658	-2
456.125	6
456.592	8
457.059	5
457.527	2
457.994	4
458.461	9
458.928	10
459.396	4
459.863	6
460.33	8
460.798	6
461.265	3
461.732	9
462.2	1
462.668	4
463.135	8
463.603	7
464.07	2
464.538	7
465.006	11
465.474	0
465.941	2
466.409	0
466.877	4
467.345	11
467.813	9
468.281	4
468.749	-1
469.217	4
469.685	6
470.153	2
470.621	6
471.09	7
471.558	2
472.026	6
472.494	1
472.963	3
473.431	2
473.9	6
474.368	6
474.837	2
475.305	2
475.774	8
476.242	10
476.711	6
477.18	5
477.648	7
478.117	13
478.586	11
479.055	1
479.524	9
479.993	4
480.462	3
480.93	9
481.399	6
481.869	3
482.338	8
482.807	5
483.276	8
483.745	12
484.214	7
484.684	12
485.153	8
485.622	3
486.092	8
486.561	13
487.031	8
487.5	4
487.97	13
488.439	7
488.909	13
489.378	11
489.848	13
490.318	15
490.787	6
491.257	16
491.727	9
492.197	14
492.667	11
493.137	6
493.607	8
494.077	8
494.547	8
495.017	13
495.487	7
495.957	11
496.427	13
496.897	7
497.368	9
497.838	11
498.308	9
498.779	10
499.249	14
499.719	4
500.19	10
500.66	11
501.131	8
501.602	7
502.072	5
502.543	11
503.014	5
503.484	9
503.955	11
504.426	10
504.897	12
505.368	15
505.838	11
506.309	8
506.78	9
507.251	12
507.722	12
508.194	13
508.665	11
509.136	10
509.607	18
510.078	12
510.549	15
511.021	15
511.492	13
511.964	13
512.435	12
512.906	11
513.378	16
513.849	12
514.321	13
514.793	13
515.264	12
515.736	13
516.208	13
516.679	14
517.151	11
517.623	11
518.095	14
518.567	13
519.038	12
519.51	18
519.982	21
520.454	12
520.927	19
521.399	8
521.871	22
522.343	18
522.815	18
523.287	12
523.76	15
524.232	18
524.704	19
525.177	18
525.649	14
526.122	16
526.594	19
527.067	18
527.539	14
528.012	15
528.484	18
528.957	19
529.43	15
529.903	14
530.375	10
530.848	16
531.321	18
531.794	15
532.267	12
532.74	18
533.213	17
533.686	28
534.159	12
534.632	12
535.105	19
535.578	18
536.051	17
536.525	16
536.998	21
537.471	22
537.945	18
538.418	23
538.891	20
539.365	20
539.838	23
540.312	23
540.786	33
541.259	39
541.733	42
542.206	38
542.68	45
543.154	41
543.628	33
544.101	40
544.575	35
545.049	38
545.523	42
545.997	55
546.471	60
546.945	51
547.419	45
547.893	36
548.367	25
548.842	30
549.316	26
549.79	29
550.264	22
550.739	27
551.213	22
551.687	23
552.162	23
552.636	21
553.111	18
553.585	27
554.06	18
554.534	17
555.009	16
555.484	18
555.958	22
556.433	19
556.908	15
557.383	17
557.858	16
558.333	18
558.807	23
559.282	21
559.757	21
560.232	20
560.708	18
561.183	22
561.658	21
562.133	20
562.608	19
563.083	19
563.559	17
564.034	24
564.509	16
564.985	17
565.46	21
565.936	22
566.411	21
566.887	24
567.362	20
567.838	22
568.313	22
568.789	18
569.265	18
569.74	21
570.216	18
570.692	20
571.168	18
571.644	20
572.12	21
572.596	22
573.071	25
573.547	18
574.024	18
574.5	20
574.976	21
575.452	29
575.928	24
576.404	21
576.881	29
577.357	29
577.833	25
578.31	23
578.786	26
579.262	30
579.739	32
580.215	32
580.692	22
581.169	29
581.645	25
582.122	27
582.598	30
583.075	27
583.552	32
584.029	26
584.506	29
584.982	29
585.459	26
585.936	31
586.413	27
586.89	28
587.367	29
587.844	36
588.321	35
588.799	27
589.276	24
589.753	24
590.23	24
590.707	29
591.185	29
591.662	24
592.139	25
592.617	26
593.094	38
593.572	28
594.049	33
594.527	26
595.004	28
595.482	31
595.96	22
596.437	25
596.915	34
597.393	24
597.871	31
598.349	27
598.826	30
599.304	26
599.782	29
600.26	29
600.738	35
601.216	28
601.694	30
602.173	33
602.651	31
603.129	27
603.607	35
604.085	30
604.564	30
605.042	25
605.52	30
605.999	29
606.477	26
606.956	27
607.434	29.5
607.913	32
608.391	34
608.87	33
609.348	36
609.827	45
610.306	56
610.785	81
611.263	98
611.742	90
612.221	83
612.7	64
613.179	56
613.658	51
614.137	51
614.616	47
615.095	42
615.574	45
616.053	41
616.532	36
617.011	39
617.491	29
617.97	31
618.449	36
618.928	37
619.408	33
619.887	33
620.367	29
620.846	36
621.326	32
621.805	38
622.285	33
622.764	36
623.244	33
623.724	31
624.203	31
624.683	35
625.163	35
625.643	30
626.123	34
626.602	32
627.082	36
627.562	32
628.042	40
628.522	38
629.002	35
629.482	32
629.963	34
630.443	41
630.923	46
631.403	34
631.883	38
632.364	32
632.844	27
633.324	30
633.805	29
634.285	31
634.766	30
635.246	29
635.727	29
636.207	25
636.688	24
637.168	31
637.649	27
638.13	29
638.611	27
639.091	31
639.572	30
640.053	27
640.534	31
641.015	28
641.496	23
641.977	31
642.458	26
642.939	31
643.42	24
643.901	30
644.382	27
644.863	26
645.345	32
645.826	25
646.307	31
646.788	32
647.27	25
647.751	28
648.233	27
648.714	31
649.196	26
649.677	27
650.159	28
650.64	26
651.122	30
651.603	32
652.085	34
652.567	28
653.049	28
653.53	34
654.012	30
654.494	28
654.976	24
655.458	27
655.94	31
656.422	30
656.904	31
657.386	27
657.868	31
658.35	28
658.833	25
659.315	29
659.797	32
660.279	24
660.762	29
661.244	26
661.726	28
662.209	29
662.691	21
663.174	27
663.656	25
664.139	27
664.621	26
665.104	24
665.587	27
666.069	26
666.552	23
667.035	24
667.517	29
668	23
668.483	32
668.966	28
669.449	24
669.932	25
670.415	29
670.898	27
671.381	25
671.864	24
672.347	26
672.83	29
673.313	24
673.797	27
674.28	26
674.763	20
675.247	28
675.73	23
676.213	29
676.697	29
677.18	22
677.664	29
678.147	30
678.631	34
679.114	23
679.598	29
680.082	25
680.565	32
681.049	27
681.533	27
682.017	27
682.5	30
682.984	32
683.468	28
683.952	24
684.436	28
684.92	28
685.404	24
685.888	27
686.372	30
686.856	36
687.341	27
687.825	24
688.309	30
688.793	27
689.278	30
689.762	27
690.246	28
690.731	24
691.215	32
691.7	30
692.184	27
692.669	23
693.153	29
693.638	25
694.122	29
694.607	26
695.092	25
695.577	26
696.061	25
696.546	22
697.031	27
697.516	23
698.001	28
698.486	28
698.971	26
699.456	21
699.941	28
700.426	25
700.911	26
701.396	26
701.881	25
702.366	27
702.852	23
703.337	25
703.822	30
704.308	28
704.793	24
705.278	26
705.764	34
706.249	28
706.735	24
707.22	28
707.706	28
708.191	32
708.677	31
709.163	23
709.648	31
710.134	30
710.62	30
711.106	26
711.592	29
712.077	27
712.563	30
713.049	27
713.535	25
714.021	27
714.507	23
714.993	22
715.479	23
715.966	24
716.452	26
716.938	23
717.424	26
717.91	24
718.397	28
718.883	29
719.369	22
719.856	25
720.342	21
720.829	25
721.315	25
721.802	24
722.288	25
722.775	20
723.262	22
723.748	21
724.235	25
724.722	22
725.208	28
725.695	23
726.182	23
726.669	20
727.156	24
727.643	25
728.13	23
728.617	25
729.104	23
729.591	24
730.078	22
730.565	21
731.052	20
731.539	23
732.027	23
732.514	24
733.001	20
733.488	26
733.976	18
734.463	24
734.951	20
735.438	17
735.926	19
736.413	22
736.901	19
737.388	24
737.876	19
738.364	23
738.851	24
739.339	23
739.827	19
740.314	19
740.802	19
741.29	24
741.778	20
742.266	21
742.754	23
743.242	25
743.73	21
744.218	19
744.706	20
745.194	21
745.682	25
746.17	21
746.659	19
747.147	21
747.635	20
748.123	22
748.612	20
749.1	17
749.589	23
750.077	18
750.566	17
751.054	20
751.543	19
752.031	20
752.52	22
753.008	18
753.497	24
753.986	19
754.474	12
754.963	17
755.452	17
755.941	21
756.43	17
756.919	20
757.408	23
757.896	20
758.385	19
758.875	21
759.364	18
759.853	23
760.342	22
760.831	15
761.32	19
761.809	15
762.299	18
762.788	24
763.277	14
763.767	18
764.256	19
764.745	15
765.235	18
765.724	14
766.214	13
766.703	14
767.193	17
767.683	21
768.172	19
768.662	16
769.152	16
769.641	14
770.131	18
770.621	19
771.111	14
771.601	14
772.09	15
772.58	23
773.07	25
773.56	14
774.05	14
774.54	18
775.031	19
775.521	18
776.011	16
776.501	22
776.991	16
777.482	10
777.972	14
778.462	12
778.953	15
779.443	12
779.933	7
780.424	18
780.914	19
781.405	20
781.895	8
782.386	14
782.877	13
783.367	18
783.858	16
784.349	12
784.839	11
785.33	15
785.821	12
786.312	12
786.803	14
787.293	17
787.784	15
788.275	13
788.766	9
789.257	15
789.748	13
790.24	8
790.731	12
791.222	10
791.713	13
792.204	16
792.696	17
793.187	10
793.678	8
794.169	11
794.661	11
795.152	12
795.644	11
796.135	11
796.627	16
797.118	17
797.61	10
798.101	10
798.593	9
799.085	15
799.576	16
800.068	11
800.56	7
801.052	15
801.544	13
802.035	12
802.527	10
803.019	12
803.511	11
804.003	17
804.495	6
804.987	10
805.479	9
805.971	14
806.464	10
806.956	11
807.448	16
807.94	12
808.433	11
808.925	17
809.417	14
809.91	12
810.402	6
810.894	8
811.387	5
811.879	13
812.372	17
812.865	9
813.357	9
813.85	7
814.342	12
814.835	12
815.328	11
815.821	6
816.313	12
816.806	13
817.299	5
817.792	4
818.285	12
818.778	14
819.271	13
819.764	8
820.257	10
820.75	11
821.243	4
821.736	7
822.229	9
822.722	8
823.216	8
