Data from lamp4helium_sterk_Subt4__22__146.txt Node

Date: Wed Apr 09 09:56:41 CEST 2025
User: fys-lab-0081
Spectrometer: S04999
Trigger mode: 0
Resolution mode: 1024 pixels
Integration Time (sec): 1.000000E-1
Scans to average: 1
Nonlinearity correction enabled: false
Boxcar width: 0
Baseline correction enabled: true
XAxis mode: Wavelengths
Number of Pixels in Spectrum: 1024
>>>>>Begin Spectral Data<<<<<
336.42	1
336.877	-3
337.334	-2
337.792	1
338.249	-1
338.706	-1
339.164	0
339.621	3
340.079	1
340.536	3
340.994	3
341.452	-8
341.909	-3
342.367	-5
342.825	0
343.283	-2
343.741	-5
344.198	-1
344.656	-2
345.114	-3
345.572	-3
346.03	-1
346.488	-3
346.947	-1
347.405	-4
347.863	-4
348.321	3
348.779	0
349.238	-2
349.696	-2
350.154	-2
350.613	-2
351.071	0
351.53	-1
351.988	2
352.447	-1
352.905	-3
353.364	-5
353.823	0
354.282	1
354.74	-6
355.199	3
355.658	-1
356.117	-2
356.576	1
357.035	-3
357.494	-2
357.953	1
358.412	7
358.871	-7
359.33	-4
359.789	-2
360.249	-3
360.708	1
361.167	-3
361.626	1
362.086	-5
362.545	-5
363.005	3
363.464	-7
363.924	1
364.383	-3
364.843	0
365.303	-6
365.762	-8
366.222	-2
366.682	1
367.142	0
367.601	-3
368.061	-2
368.521	1
368.981	0
369.441	3
369.901	3
370.361	-2
370.821	-5
371.282	1
371.742	-1
372.202	2
372.662	5
373.123	-3
373.583	-3
374.043	1
374.504	-4
374.964	-1
375.425	-3
375.885	-2
376.346	0
376.806	-2
377.267	2
377.728	1
378.188	-1
378.649	0
379.11	0
379.571	-1
380.032	-4
380.493	-2
380.954	-2
381.414	-7
381.876	-1
382.337	1
382.798	1
383.259	5
383.72	-3
384.181	0
384.642	-6
385.104	4
385.565	8
386.026	2
386.488	-4
386.949	-1
387.411	2
387.872	-3
388.334	3
388.795	-1
389.257	1
389.719	6
390.181	-3
390.642	2
391.104	1
391.566	-2
392.028	7
392.49	-3
392.952	4
393.414	0
393.876	-1
394.338	-3
394.8	-4
395.262	-2
395.724	-3
396.186	0
396.648	1
397.111	3
397.573	3
398.035	0
398.498	1
398.96	3
399.423	-2
399.885	6
400.348	2
400.81	6
401.273	-5
401.736	0
402.198	-5
402.661	-3
403.124	-4
403.587	0
404.049	2.5
404.512	5
404.975	4
405.438	-1
405.901	-4
406.364	5
406.827	0
407.29	2
407.754	-2
408.217	4
408.68	2
409.143	1
409.607	3
410.07	-3
410.533	-3
410.997	2
411.46	-2
411.924	0
412.387	2
412.851	0
413.314	1
413.778	-2
414.242	-2
414.705	0
415.169	1
415.633	3
416.097	-2
416.561	0
417.024	3
417.488	5
417.952	1
418.416	4
418.88	2
419.344	3
419.809	-1
420.273	0
420.737	-3
421.201	-6
421.665	2
422.13	-1
422.594	2
423.059	5
423.523	0
423.987	2
424.452	-1
424.916	0
425.381	-1
425.846	-3
426.31	-2
426.775	-5
427.24	3
427.704	-6
428.169	5
428.634	3
429.099	0
429.564	5
430.029	2
430.494	4
430.959	4
431.424	-3
431.889	-1
432.354	-2
432.819	1
433.284	-2
433.75	-4
434.215	-5
434.68	3
435.146	5
435.611	17
436.077	16
436.542	16
437.008	4
437.473	4
437.939	3
438.404	1
438.87	3
439.336	1
439.801	0
440.267	-1
440.733	7
441.199	4
441.665	0
442.131	2
442.596	1
443.062	-1
443.529	5
443.995	-2
444.461	-4
444.927	4
445.393	0
445.859	5
446.325	4
446.792	9
447.258	9
447.724	4
448.191	0
448.657	-3
449.124	6
449.59	5
450.057	7
450.523	3
450.99	2
451.457	2
451.923	4
452.39	4
452.857	5
453.324	1
453.791	5
454.257	6
454.724	0
455.191	-1
455.658	1
456.125	4
456.592	5
457.059	2
457.527	4
457.994	7
458.461	3
458.928	8
459.396	-1
459.863	6
460.33	6
460.798	5
461.265	3
461.732	6
462.2	0
462.668	2
463.135	6
463.603	2
464.07	2
464.538	9
465.006	6
465.474	5
465.941	5
466.409	6
466.877	3
467.345	6
467.813	10
468.281	6
468.749	-1
469.217	4
469.685	3
470.153	3
470.621	7
471.09	4
471.558	1
472.026	3
472.494	2
472.963	3
473.431	8
473.9	10
474.368	1
474.837	3
475.305	5
475.774	7
476.242	8
476.711	9
477.18	6
477.648	8
478.117	9
478.586	6
479.055	4
479.524	8
479.993	8
480.462	1
480.93	6
481.399	5
481.869	5
482.338	5
482.807	1
483.276	11
483.745	13
484.214	7
484.684	7
485.153	0
485.622	8
486.092	9
486.561	7
487.031	1
487.5	1
487.97	13
488.439	11
488.909	11
489.378	4
489.848	11
490.318	9
490.787	7
491.257	15
491.727	6
492.197	13
492.667	12
493.137	9
493.607	7
494.077	10
494.547	8
495.017	12
495.487	11
495.957	11
496.427	10
496.897	6
497.368	9
497.838	7
498.308	10
498.779	5
499.249	13
499.719	8
500.19	7
500.66	15
501.131	6
501.602	7
502.072	8
502.543	7
503.014	6
503.484	7
503.955	7
504.426	12
504.897	11
505.368	16
505.838	7
506.309	9
506.78	10
507.251	15
507.722	11
508.194	15
508.665	13
509.136	13
509.607	13
510.078	10
510.549	17
511.021	12
511.492	10
511.964	14
512.435	14
512.906	12
513.378	17
513.849	16
514.321	14
514.793	10
515.264	15
515.736	9
516.208	12
516.679	12
517.151	9
517.623	13
518.095	14
518.567	12
519.038	10
519.51	13
519.982	22
520.454	13
520.927	15
521.399	11
521.871	18
522.343	19
522.815	16
523.287	11
523.76	14
524.232	17
524.704	18
525.177	15
525.649	12
526.122	15
526.594	17
527.067	18
527.539	16
528.012	18
528.484	18
528.957	21
529.43	14
529.903	10
530.375	12
530.848	14
531.321	19
531.794	14
532.267	16
532.74	17
533.213	18
533.686	19
534.159	13
534.632	17
535.105	20
535.578	17
536.051	14
536.525	17
536.998	21
537.471	18
537.945	18
538.418	21
538.891	19
539.365	16
539.838	23
540.312	28
540.786	36
541.259	36
541.733	44
542.206	41
542.68	41
543.154	37
543.628	33
544.101	35
544.575	34
545.049	38
545.523	47
545.997	59
546.471	59
546.945	44
547.419	41
547.893	34
548.367	29
548.842	28
549.316	23
549.79	27
550.264	25
550.739	29
551.213	22
551.687	18
552.162	20
552.636	26
553.111	20
553.585	23
554.06	22
554.534	16
555.009	16
555.484	24
555.958	24
556.433	18
556.908	14
557.383	21
557.858	17
558.333	21
558.807	21
559.282	17
559.757	24
560.232	19
560.708	19
561.183	19
561.658	19
562.133	18
562.608	16
563.083	18
563.559	16
564.034	20
564.509	10
564.985	13
565.46	19
565.936	20
566.411	16
566.887	24
567.362	17
567.838	20
568.313	20
568.789	19
569.265	18
569.74	23
570.216	16
570.692	18
571.168	18
571.644	18
572.12	16
572.596	19
573.071	24
573.547	17
574.024	18
574.5	20
574.976	20
575.452	21
575.928	18
576.404	24
576.881	26
577.357	26
577.833	24
578.31	21
578.786	26
579.262	31
579.739	28
580.215	29
580.692	23
581.169	27
581.645	28
582.122	24
582.598	30
583.075	27
583.552	30
584.029	26
584.506	29
584.982	27
585.459	22
585.936	29
586.413	29
586.89	29
587.367	28
587.844	33
588.321	34
588.799	30
589.276	27
589.753	23
590.23	24
590.707	26
591.185	26
591.662	25
592.139	27
592.617	31
593.094	33
593.572	28
594.049	31
594.527	25
595.004	29
595.482	28
595.96	25
596.437	26
596.915	34
597.393	28
597.871	25
598.349	27
598.826	27
599.304	32
599.782	31
600.26	30
600.738	32
601.216	32
601.694	29
602.173	31
602.651	28
603.129	28
603.607	33
604.085	29
604.564	25
605.042	27
605.52	29
605.999	33
606.477	26
606.956	30
607.434	30.5
607.913	31
608.391	31
608.87	31
609.348	39
609.827	47
610.306	57
610.785	80
611.263	97
611.742	95
612.221	85
612.7	64
613.179	57
613.658	52
614.137	51
614.616	46
615.095	44
615.574	40
616.053	38
616.532	30
617.011	41
617.491	30
617.97	36
618.449	33
618.928	35
619.408	33
619.887	37
620.367	31
620.846	31
621.326	31
621.805	38
622.285	35
622.764	33
623.244	33
623.724	31
624.203	30
624.683	38
625.163	35
625.643	35
626.123	40
626.602	31
627.082	33
627.562	36
628.042	39
628.522	35
629.002	31
629.482	27
629.963	35
630.443	40
630.923	43
631.403	35
631.883	35
632.364	33
632.844	28
633.324	32
633.805	26
634.285	27
634.766	26
635.246	29
635.727	24
636.207	22
636.688	29
637.168	35
637.649	25
638.13	29
638.611	28
639.091	30
639.572	28
640.053	26
640.534	29
641.015	27
641.496	27
641.977	27
642.458	25
642.939	33
643.42	27
643.901	29
644.382	27
644.863	27
645.345	30
645.826	31
646.307	29
646.788	29
647.27	24
647.751	29
648.233	30
648.714	30
649.196	26
649.677	27
650.159	27
650.64	28
651.122	24
651.603	33
652.085	28
652.567	31
653.049	29
653.53	29
654.012	31
654.494	30
654.976	23
655.458	26
655.94	29
656.422	29
656.904	29
657.386	30
657.868	28
658.35	30
658.833	23
659.315	27
659.797	30
660.279	27
660.762	24
661.244	29
661.726	27
662.209	29
662.691	27
663.174	27
663.656	28
664.139	29
664.621	31
665.104	26
665.587	27
666.069	28
666.552	25
667.035	22
667.517	27
668	23
668.483	31
668.966	24
669.449	23
669.932	28
670.415	29
670.898	30
671.381	23
671.864	23
672.347	28
672.83	29
673.313	27
673.797	23
674.28	25
674.763	20
675.247	28
675.73	27
676.213	25
676.697	27
677.18	23
677.664	26
678.147	31
678.631	24
679.114	23
679.598	29
680.082	27
680.565	30
681.049	27
681.533	28
682.017	25
682.5	31
682.984	26
683.468	28
683.952	26
684.436	26
684.92	27
685.404	26
685.888	27
686.372	26
686.856	32
687.341	26
687.825	24
688.309	25
688.793	30
689.278	25
689.762	25
690.246	26
690.731	26
691.215	29
691.7	29
692.184	20
692.669	29
693.153	28
693.638	30
694.122	27
694.607	23
695.092	24
695.577	27
696.061	22
696.546	22
697.031	25
697.516	20
698.001	22
698.486	28
698.971	27
699.456	22
699.941	24
700.426	28
700.911	25
701.396	26
701.881	23
702.366	22
702.852	22
703.337	25
703.822	23
704.308	28
704.793	27
705.278	26
705.764	30
706.249	29
706.735	30
707.22	28
707.706	24
708.191	28
708.677	24
709.163	24
709.648	27
710.134	27
710.62	27
711.106	25
711.592	31
712.077	24
712.563	28
713.049	26
713.535	32
714.021	26
714.507	22
714.993	24
715.479	21
715.966	23
716.452	25
716.938	19
717.424	27
717.91	27
718.397	28
718.883	23
719.369	26
719.856	27
720.342	21
720.829	21
721.315	26
721.802	24
722.288	27
722.775	21
723.262	20
723.748	22
724.235	27
724.722	21
725.208	26
725.695	22
726.182	26
726.669	18
727.156	20
727.643	23
728.13	22
728.617	26
729.104	23
729.591	26
730.078	19
730.565	20
731.052	23
731.539	20
732.027	18
732.514	23
733.001	24
733.488	20
733.976	15
734.463	25
734.951	17
735.438	20
735.926	19
736.413	26
736.901	18
737.388	23
737.876	23
738.364	23
738.851	27
739.339	23
739.827	20
740.314	17
740.802	19
741.29	23
741.778	16
742.266	23
742.754	20
743.242	26
743.73	19
744.218	22
744.706	21
745.194	22
745.682	19
746.17	20
746.659	21
747.147	17
747.635	13
748.123	19
748.612	18
749.1	15
749.589	22
750.077	15
750.566	18
751.054	16
751.543	24
752.031	23
752.52	18
753.008	17
753.497	21
753.986	20
754.474	17
754.963	19
755.452	18
755.941	19
756.43	17
756.919	16
757.408	22
757.896	20
758.385	16
758.875	21
759.364	17
759.853	20
760.342	21
760.831	17
761.32	21
761.809	13
762.299	15
762.788	19
763.277	11
763.767	16
764.256	19
764.745	14
765.235	15
765.724	14
766.214	13
766.703	12
767.193	18
767.683	19
768.172	15
768.662	19
769.152	14
769.641	16
770.131	16
770.621	20
771.111	13
771.601	13
772.09	16
772.58	18
773.07	16
773.56	15
774.05	16
774.54	14
775.031	18
775.521	10
776.011	15
776.501	17
776.991	19
777.482	11
777.972	12
778.462	8
778.953	13
779.443	10
779.933	10
780.424	14
780.914	12
781.405	20
781.895	13
782.386	8
782.877	15
783.367	12
783.858	17
784.349	16
784.839	10
785.33	9
785.821	14
786.312	13
786.803	12
787.293	11
787.784	10
788.275	11
788.766	9
789.257	14
789.748	12
790.24	9
790.731	13
791.222	13
791.713	10
792.204	12
792.696	16
793.187	14
793.678	7
794.169	12
794.661	9
795.152	13
795.644	7
796.135	9
796.627	13
797.118	12
797.61	11
798.101	9
798.593	8
799.085	13
799.576	13
800.068	9
800.56	14
801.052	13
801.544	13
802.035	13
802.527	8
803.019	11
803.511	10
804.003	5
804.495	7
804.987	7
805.479	6
805.971	15
806.464	11
806.956	10
807.448	14
807.94	11
808.433	8
808.925	15
809.417	9
809.91	11
810.402	12
810.894	5
811.387	11
811.879	10
812.372	12
812.865	11
813.357	11
813.85	5
814.342	11
814.835	5
815.328	9
815.821	10
816.313	6
816.806	8
817.299	8
817.792	4
818.285	11
818.778	10
819.271	9
819.764	2
820.257	9
820.75	7
821.243	5
821.736	4
822.229	7
822.722	6
823.216	8
